altitude (km) // density (g/cm2)
1.00992 0.00106662
1.02996 0.00106456
1.0504 0.00106247
1.07125 0.00106033
1.0925 0.00105815
1.11418 0.00105594
1.13629 0.00105368
1.15884 0.00105138
1.18184 0.00104904
1.20529 0.00104665
1.22921 0.00104422
1.2536 0.00104175
1.27847 0.00103923
1.30384 0.00103666
1.32972 0.00103405
1.3561 0.00103139
1.38301 0.00102868
1.41046 0.00102592
1.43845 0.00102311
1.46699 0.00102025
1.4961 0.00101733
1.52579 0.00101437
1.55607 0.00101135
1.58695 0.00100828
1.61844 0.00100515
1.65056 0.00100197
1.68331 0.00099873
1.71671 0.000995434
1.75078 0.00099208
1.78552 0.000988666
1.82095 0.000985194
1.85709 0.000981659
1.89394 0.000978064
1.93152 0.000974406
1.96985 0.000970686
2.00894 0.000966903
2.04881 0.000963053
2.08946 0.000959139
2.13092 0.000955159
2.17321 0.000951111
2.21634 0.000946996
2.26032 0.000942812
2.30517 0.000938558
2.35091 0.000934235
2.39756 0.000929841
2.44514 0.000925375
2.49366 0.000920837
2.54315 0.000916226
2.59361 0.000911541
2.64508 0.000906781
2.69757 0.000901947
2.7511 0.000897037
2.80569 0.000892051
2.86137 0.000886988
2.91815 0.000881847
2.97605 0.000876629
3.03511 0.000871332
3.09534 0.000865957
3.15676 0.000860502
3.2194 0.000854967
3.28329 0.000849352
3.34844 0.000843656
3.41489 0.000837881
3.48265 0.000832024
3.55176 0.000826086
3.62224 0.000820067
3.69412 0.000813966
3.76743 0.000807784
3.84219 0.00080152
3.91843 0.000795175
3.99619 0.000788749
4.07549 0.000782241
4.15636 0.000775653
4.23884 0.000768985
4.32296 0.000762236
4.40874 0.000755407
4.49623 0.000748499
4.58545 0.000741513
4.67644 0.000734449
4.76924 0.000727307
4.86388 0.000720089
4.9604 0.000712795
5.05883 0.000705427
5.15922 0.000697985
5.2616 0.00069047
5.36601 0.000682885
5.47249 0.000675229
5.58109 0.000667505
5.69184 0.000659714
5.80479 0.000651857
5.91998 0.000643936
6.03745 0.000635953
6.15726 0.000627909
6.27944 0.000619807
6.40405 0.000611648
6.53113 0.000603434
6.66074 0.000595167
6.79291 0.000586851
6.92771 0.000578485
7.06518 0.000570074
7.20538 0.000561619
7.34836 0.000553123
7.49418 0.000544588
7.6429 0.000536016
7.79456 0.00052741
7.94924 0.000518773
8.10698 0.000510108
8.26785 0.000501416
8.43192 0.0004927
8.59924 0.000483963
8.76988 0.000475207
8.94391 0.000466435
9.12139 0.00045765
9.3024 0.000448853
9.48699 0.000440047
9.67525 0.000431234
9.86725 0.000422417
10.0631 0.000413598
10.2627 0.000404773
10.4664 0.00039593
10.6741 0.000387058
10.8859 0.000378146
11.1019 0.000369181
11.3222 0.000360156
11.5469 0.00035106
11.776 0.000341886
12.0097 0.000332627
12.248 0.00032328
12.4911 0.000313839
12.739 0.000304304
12.9918 0.000294675
13.2496 0.000284955
13.5125 0.000275147
13.7806 0.000265259
14.0541 0.000255299
14.333 0.000245278
14.6174 0.00023521
14.9075 0.000225109
15.2033 0.000214995
15.505 0.000204906
15.8126 0.000194891
16.1264 0.000184995
16.4464 0.000175261
16.7728 0.000165726
17.1056 0.000156426
17.4451 0.00014739
17.7913 0.000138645
18.1443 0.000130213
18.5044 0.000122114
18.8716 0.000114361
19.246 0.000106966
19.628 9.99364e-05
20.0175 9.32765e-05
20.4147 8.69847e-05
20.8198 8.10475e-05
21.2329 7.54496e-05
21.6543 7.01759e-05
22.084 6.52117e-05
22.5222 6.05428e-05
22.9691 5.61554e-05
23.4249 5.20359e-05
23.8898 4.81715e-05
24.3638 4.45493e-05
24.8473 4.11573e-05
25.3404 3.79837e-05
25.8432 3.50172e-05
26.3561 3.22468e-05
26.8791 2.96621e-05
27.4125 2.72529e-05
27.9564 2.50096e-05
28.5112 2.2923e-05
29.077 2.0984e-05
29.654 1.91843e-05
30.2424 1.75156e-05
30.8425 1.59703e-05
31.4546 1.45409e-05
32.0788 1.32204e-05
32.7153 1.20021e-05
33.3645 1.08798e-05
34.0266 9.84818e-06
34.7018 8.90149e-06
35.3904 8.03435e-06
36.0927 7.24153e-06
36.8089 6.51795e-06
37.5394 5.85875e-06
38.2843 5.25923e-06
39.044 4.71495e-06
39.8188 4.22164e-06
40.6089 3.77527e-06
41.4148 3.37204e-06
42.2366 3.00835e-06
43.0748 2.68082e-06
43.9295 2.3863e-06
44.8013 2.12184e-06
45.6903 1.88471e-06
46.597 1.67243e-06
47.5216 1.48272e-06
48.4646 1.31344e-06
49.4264 1.1626e-06
50.4072 1.02832e-06
51.4074 9.08892e-07
52.4276 8.02725e-07
53.4679 7.08364e-07
54.5289 6.24481e-07
55.611 5.49855e-07
56.7146 4.83228e-07
57.84 4.23435e-07
58.9878 3.6957e-07
60.1583 3.20943e-07
61.3521 2.77034e-07
62.5695 2.37443e-07
63.8112 2.01727e-07
65.0774 1.69876e-07
66.3688 1.4169e-07
67.6858 1.16978e-07
69.029 9.55452e-08
70.3988 7.71782e-08
71.7958 6.16413e-08
73.2205 4.87182e-08
74.6734 3.819e-08
76.1553 2.97294e-08
77.6665 2.29973e-08
79.2077 1.76872e-08
80.7795 1.3531e-08
82.3824 1.02994e-08
84.0172 7.80124e-09
85.6845 5.87958e-09
87.3848 4.40761e-09
89.1188 3.2842e-09
90.8873 2.42915e-09
92.6908 1.77505e-09
94.5302 1.27287e-09
96.406 8.91512e-10
98.3191 6.08346e-10
100.27 4.04204e-10
102.26 2.62562e-10
104.289 1.6888e-10
106.359 1.08867e-10
108.469 7.11205e-11
110.622 4.76734e-11
112.817 3.30936e-11
115.056 2.37514e-11
117.339 1.75675e-11
119.667 1.33366e-11
122.042 1.03366e-11
124.464 8.12009e-12
126.933 6.48293e-12
129.452 5.25233e-12
132.021 4.30905e-12
134.641 3.57369e-12
137.313 2.99191e-12
140.037 2.52561e-12
142.816 2.14753e-12
145.65 1.83781e-12
148.541 1.58172e-12
